time (s)	det(V)
6984.096169	-0.114844	
6984.097695	-0.117390	
6984.099295	-0.120963	
6984.100784	-0.125595	
6984.102367	-0.127324	
6984.103900	-0.131715	
6984.105445	-0.136283	
6984.106975	-0.141088	
6984.108488	-0.143876	
6984.110057	-0.149173	
6984.111575	-0.153290	
6984.113155	-0.157282	
6984.114642	-0.160908	
6984.116224	-0.165697	
6984.117746	-0.170290	
6984.119345	-0.173484	
6984.120827	-0.177839	
6984.122394	-0.183563	
6984.123912	-0.188860	
6984.125467	-0.192312	
6984.127015	-0.198782	
6984.128526	-0.203209	
6984.130096	-0.207757	
6984.131616	-0.211870	
6984.133204	-0.217953	
6984.134699	-0.222626	
6984.136283	-0.227375	
6984.137802	-0.232281	
6984.139374	-0.239138	
6984.140903	-0.244544	
6984.142433	-0.248532	
6984.143999	-0.256411	
6984.145521	-0.260866	
6984.147112	-0.265596	
6984.148596	-0.269306	
6984.150195	-0.276017	
6984.151688	-0.279304	
6984.153297	-0.283723	
6984.154788	-0.288259	
6984.156377	-0.293407	
6984.157867	-0.297657	
6984.159441	-0.300014	
6984.160953	-0.305101	
6984.162494	-0.308123	
6984.164048	-0.310701	
6984.165560	-0.312365	
6984.167113	-0.316244	
6984.168607	-0.316751	
6984.170228	-0.319023	
6984.171728	-0.321461	
6984.173341	-0.324204	
6984.174831	-0.324715	
6984.176402	-0.327310	
6984.177907	-0.329296	
6984.179483	-0.330029	
6984.181005	-0.330065	
6984.182544	-0.330734	
6984.184269	-0.333151	
6984.185758	-0.333122	
6984.187551	-0.334847	
6984.189026	-0.337634	
6984.190828	-0.339910	
6984.192305	-0.341292	
6984.194072	-0.344680	
6984.195558	-0.346480	
6984.197318	-0.348728	
6984.198825	-0.351137	
6984.200575	-0.356261	
6984.202088	-0.357204	
6984.203806	-0.361929	
6984.205331	-0.367138	
6984.207045	-0.373172	
6984.208587	-0.377281	
6984.210265	-0.383903	
6984.211820	-0.389736	
6984.213484	-0.395195	
6984.215069	-0.400988	
6984.216729	-0.408960	
6984.218309	-0.415179	
6984.219951	-0.422503	
6984.221547	-0.431345	
6984.223164	-0.440650	
6984.224821	-0.449513	
6984.226400	-0.458133	
6984.228073	-0.468051	
6984.229644	-0.471914	
6984.231322	-0.480595	
6984.232901	-0.490839	
6984.234586	-0.502501	
6984.236152	-0.511795	
6984.237859	-0.523771	
6984.239399	-0.536117	
6984.241101	-0.548767	
6984.242582	-0.558523	
6984.244271	-0.572791	
6984.245758	-0.583769	
6984.247460	-0.595495	
6984.248946	-0.605872	
6984.250625	-0.619617	
6984.252139	-0.629329	
6984.253785	-0.641627	
6984.255331	-0.653680	
6984.256972	-0.666410	
6984.258516	-0.676343	
6984.260108	-0.688356	
6984.261703	-0.699426	
6984.263256	-0.708522	
6984.264888	-0.716888	
6984.266400	-0.725574	
6984.268093	-0.734005	
6984.269564	-0.739584	
6984.271303	-0.746549	
6984.272776	-0.753115	
6984.274488	-0.758598	
6984.275965	-0.760511	
6984.277657	-0.764813	
6984.279139	-0.765784	
6984.280834	-0.764991	
6984.282324	-0.763706	
6984.284028	-0.763464	
6984.285543	-0.759129	
6984.287109	-0.756056	
6984.288664	-0.752813	
6984.290185	-0.748680	
6984.291810	-0.741747	
6984.293305	-0.736680	
6984.294938	-0.729344	
6984.296453	-0.722290	
6984.298100	-0.712562	
6984.299589	-0.705815	
6984.301225	-0.698374	
6984.302711	-0.689653	
6984.304373	-0.680908	
6984.305853	-0.674519	
6984.307482	-0.666982	
6984.308960	-0.658188	
6984.310555	-0.653273	
6984.312083	-0.646477	
6984.313633	-0.639754	
6984.315231	-0.633957	
6984.316730	-0.629015	
6984.318390	-0.623862	
6984.319866	-0.618368	
6984.321499	-0.614940	
6984.323018	-0.612531	
6984.324659	-0.609332	
6984.326126	-0.605804	
6984.327709	-0.604510	
6984.329202	-0.602295	
6984.330751	-0.599318	
6984.332264	-0.596591	
6984.333755	-0.596434	
6984.335319	-0.591946	
6984.336845	-0.590194	
6984.338446	-0.588780	
6984.339951	-0.587527	
6984.341492	-0.584292	
6984.343025	-0.581702	
6984.344609	-0.579160	
6984.346085	-0.575112	
6984.347656	-0.569456	
6984.349150	-0.563551	
6984.350699	-0.559877	
6984.352243	-0.552895	
6984.353740	-0.547034	
6984.355306	-0.541487	
6984.356827	-0.536400	
6984.358417	-0.528774	
6984.359915	-0.523078	
6984.361499	-0.515843	
6984.362999	-0.508479	
6984.364534	-0.499532	
6984.366070	-0.491975	
6984.367603	-0.484930	
6984.369136	-0.475153	
6984.370636	-0.470251	
6984.372248	-0.467060	
6984.373734	-0.460659	
6984.375315	-0.451793	
6984.376836	-0.445980	
6984.378406	-0.439402	
6984.379929	-0.432006	
6984.381442	-0.424110	
6984.383012	-0.417790	
6984.384520	-0.411808	
6984.386105	-0.403570	
6984.387592	-0.397995	
6984.389179	-0.392907	
6984.390706	-0.387525	
6984.392314	-0.379625	
6984.393801	-0.375355	
6984.395361	-0.368298	
6984.396891	-0.359874	
6984.398464	-0.351512	
6984.399993	-0.345437	
6984.401518	-0.336430	
6984.403104	-0.327165	
6984.404620	-0.318061	
6984.406198	-0.310129	
6984.407680	-0.300638	
6984.409281	-0.288960	
6984.410783	-0.280287	
6984.412377	-0.268411	
6984.413867	-0.256242	
6984.415438	-0.243629	
6984.416957	-0.232725	
6984.418470	-0.218867	
6984.420031	-0.205320	
6984.421551	-0.193448	
6984.423153	-0.181791	
6984.424650	-0.168570	
6984.426225	-0.154809	
6984.427743	-0.144480	
6984.429342	-0.132520	
6984.430830	-0.120387	
6984.432398	-0.108866	
6984.433918	-0.100733	
6984.435482	-0.089615	
6984.437011	-0.081340	
6984.438551	-0.075378	
6984.440116	-0.070262	
6984.441631	-0.064325	
6984.443204	-0.059386	
6984.444693	-0.056341	
6984.446282	-0.053033	
6984.447802	-0.049976	
6984.449393	-0.049299	
6984.450896	-0.050387	
6984.452452	-0.049295	
6984.453991	-0.050818	
6984.455549	-0.054089	
6984.457067	-0.058061	
6984.458553	-0.059531	
6984.460162	-0.064075	
6984.461656	-0.067241	
6984.463244	-0.070097	
6984.464741	-0.072301	
6984.466332	-0.075777	
6984.467828	-0.079447	
6984.469389	-0.080889	
6984.470920	-0.083383	
6984.472459	-0.086134	
6984.474001	-0.087943	
6984.475518	-0.088068	
6984.477081	-0.089550	
6984.478607	-0.088551	
6984.480193	-0.085920	
6984.481684	-0.082992	
6984.483252	-0.080390	
6984.484770	-0.076015	
6984.486349	-0.070089	
6984.487848	-0.064393	
6984.489416	-0.059414	
6984.490937	-0.052582	
6984.492477	-0.044453	
6984.494016	-0.038423	
6984.495533	-0.030680	
6984.497098	-0.020694	
6984.498609	-0.008774	
6984.500341	-0.000182	
6984.501892	0.010751	
6984.503585	0.020318	
6984.505130	0.029140	
6984.506779	0.038518	
6984.508369	0.049528	
6984.510015	0.058692	
6984.511611	0.068449	
6984.513258	0.078354	
6984.514857	0.089191	
6984.516499	0.098705	
6984.518132	0.108373	
6984.519735	0.119685	
6984.521419	0.128318	
6984.523004	0.137603	
6984.524672	0.149225	
6984.526265	0.160359	
6984.527937	0.171280	
6984.529501	0.183594	
6984.531213	0.197250	
6984.532756	0.209786	
6984.534453	0.223023	
6984.535996	0.238303	
6984.537713	0.253651	
6984.539230	0.267206	
6984.540969	0.283384	
6984.542462	0.299763	
6984.544246	0.315151	
6984.545725	0.332090	
6984.547513	0.350995	
6984.549003	0.363644	
6984.550778	0.380599	
6984.552253	0.398872	
6984.554017	0.417571	
6984.555506	0.433189	
6984.557266	0.450587	
6984.558777	0.467526	
6984.560530	0.482270	
6984.562045	0.496325	
6984.563688	0.511193	
6984.565226	0.524390	
6984.566862	0.533688	
6984.568443	0.545925	
6984.570012	0.554091	
6984.571617	0.560742	
6984.573173	0.565350	
6984.574805	0.570603	
6984.576307	0.573664	
6984.578018	0.574071	
6984.579495	0.574140	
6984.581212	0.573914	
6984.582687	0.572347	
6984.584406	0.567578	
6984.585892	0.565080	
6984.587609	0.559078	
6984.589101	0.551855	
6984.590791	0.543662	
6984.592269	0.537555	
6984.593957	0.526529	
6984.595455	0.519210	
6984.597124	0.511189	
6984.598656	0.503656	
6984.600277	0.493259	
6984.601838	0.485968	
6984.603424	0.478141	
6984.605038	0.470310	
6984.606526	0.461697	
6984.608158	0.455852	
6984.609690	0.450648	
6984.611325	0.444102	
6984.612806	0.439578	
6984.614438	0.437241	
6984.615920	0.434688	
6984.617562	0.430873	
6984.619055	0.432544	
6984.620677	0.431501	
6984.622192	0.431110	
6984.623783	0.432057	
6984.625314	0.435840	
6984.626865	0.438692	
6984.628465	0.443127	
6984.629959	0.448295	
6984.631600	0.456883	
6984.633117	0.461931	
6984.634754	0.469190	
6984.636249	0.477279	
6984.637900	0.486145	
6984.639385	0.492973	
6984.641023	0.502693	
6984.642506	0.513461	
6984.644126	0.520801	
6984.645611	0.530815	
6984.647202	0.542224	
6984.648728	0.553378	
6984.650273	0.562325	
6984.651867	0.574277	
6984.653365	0.586535	
6984.655036	0.595216	
6984.656524	0.604518	
6984.658156	0.614975	
6984.659673	0.625328	
6984.661264	0.632921	
6984.662743	0.641932	
6984.664306	0.652938	
6984.665799	0.660197	
6984.667323	0.668121	
6984.668877	0.677140	
6984.670365	0.682743	
6984.671938	0.688065	
6984.673467	0.692065	
6984.675051	0.698426	
6984.676550	0.701193	
6984.678124	0.703268	
6984.679632	0.705012	
6984.681197	0.707022	
6984.682692	0.706543	
6984.684256	0.704508	
6984.685759	0.702998	
6984.687285	0.698240	
6984.688859	0.691924	
6984.690357	0.685144	
6984.691947	0.677857	
6984.693445	0.668801	
6984.695065	0.657554	
6984.696548	0.647266	
6984.698134	0.636386	
6984.699635	0.623144	
6984.701189	0.606660	
6984.702702	0.594491	
6984.704251	0.578853	
6984.705751	0.562280	
6984.707265	0.544246	
6984.708860	0.527891	
6984.710352	0.509783	
6984.711917	0.491765	
6984.713437	0.474548	
6984.715019	0.456876	
6984.716556	0.439167	
6984.718070	0.420874	
6984.719637	0.404648	
6984.721154	0.387439	
6984.722732	0.368546	
6984.724219	0.356788	
6984.725838	0.343744	
6984.727328	0.327425	
6984.728937	0.312508	
6984.730426	0.298357	
6984.732010	0.284628	
6984.733514	0.269953	
6984.735040	0.258267	
6984.736588	0.245755	
6984.738125	0.233408	
6984.739713	0.219462	
6984.741192	0.208634	
6984.742761	0.198890	
6984.744285	0.187212	
6984.745904	0.177648	
6984.747395	0.169483	
6984.748966	0.161600	
6984.750483	0.152073	
6984.752046	0.145410	
6984.753563	0.138723	
6984.755094	0.131399	
6984.756649	0.123806	
6984.758152	0.118138	
6984.759729	0.113312	
6984.761227	0.107556	
6984.762823	0.103008	
6984.764324	0.101183	
6984.765921	0.097860	
6984.767416	0.094061	
6984.768971	0.092917	
6984.770487	0.090665	
6984.772055	0.088872	
6984.773581	0.086347	
6984.775110	0.086782	
6984.776687	0.085630	
6984.778183	0.085855	
6984.779755	0.087523	
6984.781281	0.089114	
6984.782878	0.089275	
6984.784383	0.089920	
6984.785944	0.093505	
6984.787482	0.095624	
6984.789036	0.095475	
6984.790572	0.097042	
6984.792086	0.100095	
6984.793663	0.100921	
6984.795193	0.102246	
6984.796762	0.105481	
6984.798247	0.107532	
6984.799839	0.108704	
6984.801341	0.109594	
6984.802927	0.112128	
6984.804431	0.112486	
6984.805995	0.112031	
6984.807530	0.112434	
6984.809084	0.113981	
6984.810634	0.111677	
6984.812165	0.110710	
6984.813732	0.111056	
6984.815239	0.110122	
6984.816798	0.106923	
6984.818315	0.104849	
6984.819917	0.103487	
6984.821400	0.100429	
6984.823064	0.095692	
6984.824723	0.093046	
6984.826309	0.089195	
6984.827992	0.083591	
6984.829598	0.079341	
6984.831260	0.076288	
6984.832844	0.072118	
6984.834559	0.065375	
6984.836107	0.062358	
6984.837806	0.057468	
6984.839335	0.051179	
6984.841047	0.045797	
6984.842574	0.042655	
6984.844289	0.036085	
6984.845779	0.033185	
6984.847539	0.028915	
6984.849023	0.025124	
6984.850795	0.019513	
6984.852271	0.017269	
6984.854041	0.013353	
6984.855524	0.008217	
6984.857274	0.004552	
6984.858774	0.002735	
6984.860501	-0.003360	
6984.862021	-0.005789	
6984.863719	-0.008190	
6984.865266	-0.010547	
6984.866944	-0.014462	
6984.868494	-0.015848	
6984.870164	-0.018954	
6984.871727	-0.021874	
6984.873373	-0.026390	
6984.874957	-0.027671	
6984.876581	-0.030628	
6984.878191	-0.034205	
6984.879814	-0.035792	
6984.881437	-0.037242	
6984.883054	-0.040501	
6984.884703	-0.042777	
6984.886300	-0.044187	
6984.887980	-0.046367	
6984.889554	-0.049480	
6984.891259	-0.051825	
6984.892825	-0.055132	
6984.894520	-0.058677	
6984.896090	-0.060353	
6984.897783	-0.060502	
6984.899318	-0.061025	
6984.901031	-0.063161	
6984.902551	-0.061324	
6984.904292	-0.061811	
6984.905770	-0.063181	
6984.907476	-0.063185	
6984.908958	-0.061336	
6984.910646	-0.062379	
6984.912147	-0.061714	
6984.913830	-0.059233	
6984.915359	-0.056486	
6984.916973	-0.056852	
6984.918527	-0.053936	
6984.920167	-0.051498	
6984.921735	-0.050334	
6984.923333	-0.049343	
6984.924937	-0.046189	
6984.926489	-0.044799	
6984.928108	-0.042959	
6984.929617	-0.040501	
6984.931300	-0.037367	
6984.932777	-0.035333	
6984.934492	-0.033838	
6984.935963	-0.030761	
6984.937677	-0.029343	
6984.939155	-0.028634	
6984.940855	-0.027586	
6984.942334	-0.025330	
6984.944024	-0.025331	
6984.945507	-0.023904	
6984.947175	-0.022253	
6984.948692	-0.020879	
6984.950319	-0.021371	
6984.951856	-0.019933	
6984.953349	-0.019671	
6984.955006	-0.020331	
6984.956493	-0.021334	
6984.958121	-0.021314	
6984.959648	-0.021326	
6984.961268	-0.022910	
6984.962756	-0.023631	
6984.964395	-0.023469	
6984.965886	-0.023993	
6984.967519	-0.027002	
6984.969002	-0.026044	
6984.970617	-0.027635	
6984.972113	-0.030209	
6984.973696	-0.032271	
6984.975244	-0.032138	
6984.976762	-0.035079	
6984.978382	-0.037033	
6984.979875	-0.037790	
6984.981493	-0.038330	
6984.983014	-0.040038	
6984.984655	-0.041645	
6984.986139	-0.042008	
6984.987772	-0.043724	
6984.989244	-0.046391	
6984.990884	-0.048228	
6984.992359	-0.048473	
6984.993985	-0.051072	
6984.995470	-0.052953	
6984.997034	-0.053654	
6984.998580	-0.053787	
6985.000104	-0.056969	
6985.001746	-0.057098	
6985.003232	-0.058371	
6985.004868	-0.061078	
6985.006383	-0.063406	
6985.007964	-0.065473	
6985.009447	-0.065811	
6985.011015	-0.069167	
6985.012505	-0.070847	
6985.014067	-0.071523	
6985.015583	-0.072494	
6985.017073	-0.075572	
6985.018638	-0.075777	
6985.020168	-0.078069	
6985.021757	-0.079765	
6985.023259	-0.082770	
6985.024820	-0.083951	
6985.026346	-0.084772	
6985.027933	-0.088140	
6985.029418	-0.089260	
6985.030986	-0.089248	
6985.032475	-0.090170	
6985.034022	-0.092898	
6985.035549	-0.091705	
6985.037036	-0.093248	
6985.038606	-0.094267	
6985.040129	-0.095935	
6985.041724	-0.095713	
6985.043228	-0.095879	
6985.044790	-0.096378	
6985.046318	-0.095673	
6985.047892	-0.093993	
6985.049404	-0.093067	
6985.050954	-0.093401	
6985.052461	-0.090058	
6985.053976	-0.089187	
6985.055563	-0.088680	
6985.057049	-0.087822	
6985.058616	-0.084575	
6985.060139	-0.084362	
6985.061703	-0.082315	
6985.063231	-0.079652	
6985.064778	-0.076631	
6985.066339	-0.074488	
6985.067861	-0.073300	
6985.069422	-0.069292	
6985.070939	-0.067596	
6985.072529	-0.066999	
6985.074016	-0.065525	
6985.075585	-0.062576	
6985.077112	-0.061827	
6985.078705	-0.060675	
6985.080194	-0.057529	
6985.081756	-0.055217	
6985.083275	-0.055172	
6985.084850	-0.054725	
6985.086373	-0.052522	
6985.087886	-0.053114	
6985.089457	-0.053883	
6985.090977	-0.053787	
6985.092569	-0.053255	
6985.094058	-0.055615	
6985.095627	-0.056361	
6985.097146	-0.056449	
6985.098702	-0.056611	
6985.100220	-0.059737	
6985.101752	-0.060196	
6985.103305	-0.061316	
6985.104822	-0.063906	
6985.106373	-0.066802	
6985.107857	-0.068828	
6985.109487	-0.069960	
6985.110982	-0.073731	
6985.112556	-0.075713	
6985.114073	-0.077904	
6985.115675	-0.079943	
6985.117175	-0.083806	
6985.118742	-0.083951	
6985.120266	-0.087153	
6985.121838	-0.090521	
6985.123357	-0.094642	
6985.124894	-0.096459	
6985.126445	-0.101071	
6985.127968	-0.105039	
6985.129564	-0.107541	
6985.131064	-0.109869	
6985.132620	-0.113216	
6985.134152	-0.118369	
6985.135706	-0.120645	
6985.137253	-0.125225	
6985.138784	-0.130329	
6985.140347	-0.135924	
6985.141873	-0.138563	
6985.143439	-0.145423	
6985.144925	-0.150430	
6985.146520	-0.155224	
6985.148005	-0.159450	
6985.149603	-0.165295	
6985.151104	-0.172131	
6985.152663	-0.176340	
6985.154195	-0.182101	
6985.155738	-0.188675	
6985.157274	-0.194915	
6985.158796	-0.199306	
6985.160363	-0.206573	
6985.161882	-0.211846	
6985.163468	-0.216426	
6985.164964	-0.220297	
6985.166574	-0.226577	
6985.168071	-0.230541	
6985.169653	-0.233921	
6985.171145	-0.238324	
6985.172711	-0.243456	
6985.174234	-0.246924	
6985.175795	-0.249233	
6985.177339	-0.253414	
6985.178846	-0.255694	
6985.180647	-0.257197	
6985.182133	-0.257946	
6985.183890	-0.260722	
6985.185392	-0.259662	
6985.187140	-0.260262	
6985.188659	-0.261430	
6985.190388	-0.262019	
6985.191920	-0.260077	
6985.193618	-0.260935	
6985.195162	-0.260021	
6985.196839	-0.258135	
6985.198392	-0.255795	
6985.200050	-0.255835	
6985.201633	-0.253567	
6985.203296	-0.251142	
6985.204878	-0.250908	
6985.206516	-0.250957	
6985.208112	-0.249212	
6985.209745	-0.248060	
6985.211380	-0.248592	
6985.212964	-0.247372	
6985.214637	-0.246816	
6985.216217	-0.246840	
6985.217902	-0.248713	
6985.219462	-0.247811	
6985.221146	-0.249402	
6985.222705	-0.252218	
6985.224399	-0.254764	
6985.225938	-0.256266	
6985.227655	-0.262051	
6985.229175	-0.264826	
6985.230913	-0.268347	
6985.232388	-0.272625	
6985.234173	-0.279767	
6985.235659	-0.283574	
6985.237426	-0.291079	
6985.238914	-0.298221	
6985.240696	-0.307164	
6985.242169	-0.313730	
6985.243946	-0.324836	
6985.245434	-0.333823	
6985.247164	-0.342931	
6985.248667	-0.352120	
6985.250395	-0.365293	
6985.251923	-0.375794	
6985.253636	-0.387746	
6985.255180	-0.400939	
6985.256877	-0.415631	
6985.258431	-0.427897	
6985.260114	-0.443547	
6985.261675	-0.457573	
6985.263312	-0.469405	
6985.264907	-0.479644	
6985.266449	-0.494892	
6985.268085	-0.511219	
6985.269582	-0.525733	
6985.271290	-0.542873	
6985.272767	-0.559993	
6985.274468	-0.577218	
6985.275941	-0.591805	
6985.277652	-0.610118	
6985.279144	-0.625031	
6985.280864	-0.640431	
6985.282341	-0.654031	
6985.284041	-0.670192	
6985.285511	-0.681963	
6985.287174	-0.695724	
6985.288676	-0.708562	
6985.290327	-0.721593	
6985.291862	-0.730428	
6985.293468	-0.741332	
6985.295039	-0.750094	
6985.296613	-0.756398	
6985.298232	-0.761659	
6985.299777	-0.767653	
6985.301403	-0.772217	
6985.302898	-0.773692	
6985.304618	-0.777402	
6985.306093	-0.780044	
6985.307802	-0.780052	
6985.309291	-0.777781	
6985.310933	-0.777833	
6985.312435	-0.775279	
6985.314061	-0.770739	
6985.315560	-0.766441	
6985.317161	-0.763544	
6985.318679	-0.758042	
6985.320255	-0.752160	
6985.321837	-0.747061	
6985.323325	-0.742130	
6985.324982	-0.734412	
6985.326472	-0.728027	
6985.328105	-0.721219	
6985.329635	-0.714375	
6985.331257	-0.705170	
6985.332740	-0.698020	
6985.334390	-0.690994	
6985.335872	-0.681822	
6985.337514	-0.673141	
6985.338992	-0.666579	
6985.340633	-0.658478	
6985.342124	-0.648629	
6985.343703	-0.641635	
6985.345255	-0.632805	
6985.346793	-0.623705	
6985.348415	-0.613413	
6985.349895	-0.606077	
6985.351547	-0.597328	
6985.353048	-0.587906	
6985.354698	-0.579466	
6985.356171	-0.573468	
6985.357818	-0.565557	
6985.359296	-0.557145	
6985.360863	-0.552182	
6985.362351	-0.545834	
6985.363896	-0.538438	
6985.365453	-0.532303	
6985.366943	-0.529056	
6985.368517	-0.522808	
6985.370038	-0.518554	
6985.371632	-0.514345	
6985.373117	-0.513096	
6985.374700	-0.510236	
6985.376177	-0.506715	
6985.377757	-0.506985	
6985.379241	-0.505434	
6985.380805	-0.503508	
6985.382300	-0.502026	
6985.383804	-0.504064	
6985.385390	-0.502243	
6985.386874	-0.502517	
6985.388471	-0.503573	
6985.389967	-0.505071	
6985.391531	-0.505079	
6985.393064	-0.505152	
6985.394632	-0.506517	
6985.396131	-0.506280	
6985.397663	-0.504346	
6985.399204	-0.502904	
6985.400777	-0.502763	
6985.402298	-0.498795	
6985.403790	-0.496036	
6985.405390	-0.493659	
6985.406884	-0.491085	
6985.408471	-0.484877	
6985.409965	-0.480205	
6985.411529	-0.474150	
6985.413052	-0.470045	
6985.414565	-0.464716	
6985.416132	-0.455628	
6985.417655	-0.447760	
6985.419241	-0.435180	
6985.420727	-0.425174	
6985.422310	-0.414079	
6985.423836	-0.403231	
6985.425422	-0.389865	
6985.426926	-0.379847	
6985.428489	-0.367089	
6985.430012	-0.354658	
6985.431542	-0.341115	
6985.433099	-0.329884	
6985.434611	-0.319043	
6985.436182	-0.305379	
6985.437705	-0.294668	
6985.439282	-0.284485	
6985.440772	-0.275010	
6985.442348	-0.263896	
6985.443876	-0.256202	
6985.445464	-0.247500	
6985.446946	-0.239323	
6985.448501	-0.230735	
6985.450023	-0.225429	
6985.451587	-0.219999	
6985.453113	-0.213550	
6985.454636	-0.209260	
6985.456209	-0.206359	
6985.457720	-0.203221	
6985.459320	-0.198879	
6985.460809	-0.197312	
6985.462382	-0.194363	
6985.463906	-0.190802	
6985.465487	-0.187426	
6985.467016	-0.186717	
6985.468561	-0.183297	
6985.470112	-0.180324	
